   5.210000247461721E-001   5.823622885704637E-019   0.000000000000000E+000
        1.563000074238516   1.984609764807466E-018   0.000000000000000E+000
        2.605000123730861   6.629993958923362E-018   0.000000000000000E+000
        3.647000173223205   2.171243146232462E-017   0.000000000000000E+000
        4.689000222715549   6.970474789346102E-017   0.000000000000000E+000
        5.731000272207893   2.193694536752395E-016   0.000000000000000E+000
        6.773000321700238   6.767857881992816E-016   0.000000000000000E+000
        7.815000371192582   2.046864327636925E-015   0.000000000000000E+000
        8.857000420684926   6.068637272236799E-015   0.000000000000000E+000
        9.899000470177271   1.763840169511320E-014   0.000000000000000E+000
       10.941000519669620   5.025681050050151E-014   0.000000000000000E+000
       11.983000569161960   1.403783314700491E-013   0.000000000000000E+000
       13.025000618654300   3.843940015156031E-013   0.000000000000000E+000
       14.067000668146650   1.031873644451893E-012   0.000000000000000E+000
       15.109000717638990   2.715513478493827E-012   0.000000000000000E+000
       16.151000767131340   7.005758796892892E-012   0.000000000000000E+000
       17.193000816623680   1.771897319094380E-011   0.000000000000000E+000
       18.235000866116030   4.393438826581889E-011   0.000000000000000E+000
       19.277000915608370   1.067962320693436E-010   0.000000000000000E+000
       20.319000965100710   2.545044569138698E-010   0.000000000000000E+000
       21.361001014593060   5.946014015621456E-010   0.000000000000000E+000
       22.403001064085400   1.361917081440196E-009   0.000000000000000E+000
       23.445001113577750   3.058249490848877E-009   0.000000000000000E+000
       24.487001163070090   6.732806869457564E-009   0.000000000000000E+000
       25.529001212562430   1.453195662883279E-008   0.000000000000000E+000
       26.571001262054780   3.075109765791962E-008   0.000000000000000E+000
       27.613001311547120   6.379841214246582E-008   0.000000000000000E+000
       28.655001361039470   1.297705647895969E-007   0.000000000000000E+000
       29.697001410531810   2.587999603905066E-007   0.000000000000000E+000
       30.739001460024160   5.060329222852684E-007   0.000000000000000E+000
       31.781001509516500   9.701190756033722E-007   0.000000000000000E+000
       32.823001559008840   1.823511304852203E-006   0.000000000000000E+000
       33.865001608501190   3.360738864758929E-006   0.000000000000000E+000
       34.907001657993530   6.073094540932945E-006   0.000000000000000E+000
       35.949001707485880   1.076070424914622E-005   0.000000000000000E+000
       36.991001756978220   1.869534578704810E-005   0.000000000000000E+000
       38.033001806470570   3.184898631269578E-005   0.000000000000000E+000
       39.075001855962910   5.320281097058239E-005   0.000000000000000E+000
       40.117001905455250   8.714818755505284E-005   0.000000000000000E+000
       41.159001954947600   1.399830185612159E-004   0.000000000000000E+000
       42.201002004439940   2.204928025278616E-004   0.000000000000000E+000
       43.243002053932290   3.405844998639010E-004   0.000000000000000E+000
       44.285002103424630   5.159131135856128E-004   0.000000000000000E+000
       45.327002152916980   7.664076455011050E-004   0.000000000000000E+000
       46.369002202409320   1.116568969584407E-003   0.000000000000000E+000
       47.411002251901660   1.595383892405483E-003   0.000000000000000E+000
       48.453002301394010   2.235686111723239E-003   0.000000000000000E+000
       49.495002350886350   3.072805801095170E-003   0.000000000000000E+000
       50.537002400378700   4.142394009693499E-003   0.000000000000000E+000
       51.579002449871040   5.477391213259338E-003   0.000000000000000E+000
       52.621002499363390   7.104229994721543E-003   0.000000000000000E+000
       53.663002548855730   9.038510116539339E-003   0.000000000000000E+000
       54.705002598348070   1.128054083687028E-002   0.000000000000000E+000
       55.747002647840420   1.381128275228724E-002   0.000000000000000E+000
       56.789002697332760   1.658930798386897E-002   0.000000000000000E+000
       57.831002746825110   1.954940324364345E-002   0.000000000000000E+000
       58.873002796317450   2.260334443020981E-002   0.000000000000000E+000
       59.915002845809800   2.564316910710765E-002   0.000000000000000E+000
       60.957002895302140   2.854698023086179E-002   0.000000000000000E+000
       61.999002944794480   3.118696753206518E-002   0.000000000000000E+000
       63.041002994286830   3.343898529167323E-002   0.000000000000000E+000
       64.083003043779170   3.519273771218524E-002   4.691653540833960E-003
       65.125003093271520   3.636145202226227E-002   1.780238242064918E-002
       66.167003142763860   3.688990447341223E-002   1.613177767319856E-003
       67.209003192256210   3.675981871217585E-002   4.037553762579083E-003
       68.251003241748550   3.599196213083000E-002   5.277018816068320E-003
       69.293003291240890   3.464467772179445E-002   2.335189857115422E-004
       70.335003340733240   3.280904077272244E-002   4.121685173744485E-003
       71.377003390225580   3.060124855866313E-002   1.509764439514555E-004
       72.419003439717930   2.815317146662852E-002   0.000000000000000E+000
       73.461003489210270   2.560216983680726E-002   0.000000000000000E+000
       74.503003538702620   2.308129361616519E-002   0.000000000000000E+000
       75.545003588194960   2.071084187015542E-002   0.000000000000000E+000
       76.587003637687300   1.859200079401362E-002   0.000000000000000E+000
       77.629003687179650   1.680295212718245E-002   0.000000000000000E+000
       78.671003736671990   1.539750360459973E-002   0.000000000000000E+000
       79.713003786164340   1.440598879913463E-002   0.000000000000000E+000
       80.755003835656680   1.383795230852844E-002   0.000000000000000E+000
       81.797003885149020   1.368599836648650E-002   0.000000000000000E+000
       82.839003934641370   1.393014110780939E-002   0.000000000000000E+000
       83.881003984133710   1.454204407459435E-002   2.042208390213450E-003
       84.923004033626060   1.548865717197380E-002   1.281357750219950E-003
       85.965004083118400   1.673492826867936E-002   7.612974140316192E-004
       87.007004132610750   1.824545935115162E-002   0.000000000000000E+000
       88.049004182103090   1.998516917607327E-002   1.530129010809991E-005
       89.091004231595430   2.191919261864765E-002   5.171702118974122E-004
       90.133004281087780   2.401237043373571E-002   2.392467945371080E-003
       91.175004330580120   2.622874452598199E-002   1.922530880594989E-003
       92.217004380072470   2.853146147495275E-002   3.006785057650658E-003
       93.259004429564810   3.088339816180531E-002   0.000000000000000E+000
       94.301004479057160   3.324866661311570E-002   0.000000000000000E+000
       95.343004528549500   3.559495222958486E-002   0.000000000000000E+000
       96.385004578041840   3.789642367810295E-002   3.265394739395732E-003
       97.427004627534190   4.013676438378046E-002   0.000000000000000E+000
       98.469004677026530   4.231175513741706E-002   2.654819339109884E-003
       99.511004726518880   4.443081627429307E-002   5.681671920701585E-003
      100.553004776011200   4.651701056348016E-002   1.609521395239796E-002
      101.595004825503600   4.860520662166129E-002   0.000000000000000E+000
      102.637004874995900   5.073837721664136E-002   0.000000000000000E+000
      103.679004924488300   5.296230994410909E-002   0.000000000000000E+000
      104.721004973980600   5.531928453839499E-002   0.000000000000000E+000
      105.763005023472900   5.784147070972500E-002   4.081849238952176E-004
      106.805005072965300   6.054488699152409E-002   2.540030273250492E-003
      107.847005122457600   6.342472076378883E-002   2.287364199726668E-003
      108.889005171950000   6.645265227065121E-002   2.695362215655391E-003
      109.931005221442300   6.957658088302082E-002   7.427790131932189E-003
      110.973005270934700   7.272286189879169E-002   1.948955402901820E-003
      112.015005320427000   7.580087111546965E-002   4.637688958300941E-003
      113.057005369919400   7.870946047966082E-002   3.071963806686505E-003
      114.099005419411700   8.134467798413535E-002   5.907135985933624E-003
      115.141005468904000   8.360801211207138E-002   6.139590632641992E-003
      116.183005518396400   8.541438747980759E-002   8.053187900538239E-003
      117.225005567888700   8.669917795111437E-002   5.218609503970081E-003
      118.267005617381100   8.742360625646753E-002   1.777308345713889E-003
      119.309005666873400   8.757805323904100E-002   1.556782108277345E-002
      120.351005716365800   8.718299248959943E-002   2.844463879902516E-003
      121.393005765858100   8.628748289303741E-002   9.196570026597463E-003
      122.435005815350500   8.496537532523699E-002   8.120215944940555E-003
      123.477005864842800   8.330960022050565E-002   4.992528034970858E-003
      124.519005914335100   8.142507804579061E-002   2.496560414739982E-003
      125.561005963827500   7.942091413248076E-002   4.860102471353920E-004
      126.603006013319800   7.740258720798797E-002   2.569423571514692E-003
      127.645006062812200   7.546481055698992E-002   2.801232649073067E-003
      128.687006112304500   7.368564038922625E-002   2.258698641682254E-003
      129.729006161796900   7.212224322060136E-002   3.316942820164542E-003
      130.771006211289200   7.080853711241660E-002   8.948413941729867E-003
      131.813006260781600   6.975471898082872E-002   2.825881008082537E-003
      132.855006310273900   6.894850941373198E-002   0.000000000000000E+000
      133.897006359766200   6.835780914900111E-002   0.000000000000000E+000
      134.939006409258600   6.793437990567759E-002   1.681954530955703E-003
      135.981006458750900   6.761813839304297E-002   1.195692323785928E-002
      137.023006508243300   6.734167828062848E-002   5.117170088365058E-003
      138.065006557735600   6.703469620916493E-002   5.328309036540815E-003
      139.107006607228000   6.662807719765676E-002   7.928842487267394E-004
      140.149006656720300   6.605747570756139E-002   1.040209138000214E-003
      141.191006706212700   6.526629888671712E-002   3.522054528725574E-003
      142.233006755705000   6.420805156982225E-002   4.408025657923043E-003
      143.275006805197300   6.284803763023153E-002   6.022821424130361E-003
      144.317006854689700   6.116443280087952E-002   5.352386720256190E-003
      145.359006904182000   5.914875583107623E-002   5.925996863584965E-003
      146.401006953674400   5.680577343232898E-002   1.747179937956041E-003
      147.443007003166700   5.415288367955307E-002   4.334795935650658E-003
      148.485007052659100   5.121903362590985E-002   9.778421859585201E-004
      149.527007102151400   4.804323891002070E-002   6.016688080717704E-003
      150.569007151643800   4.467278401016857E-002   2.021341686636093E-003
      151.611007201136100   4.116118962206592E-002   0.000000000000000E+000
      152.653007250628400   3.756603760558124E-002   3.523947215479477E-003
      153.695007300120800   3.394674461932137E-002   2.321035230398789E-003
      154.737007349613100   3.036237436500009E-002   3.224771953793735E-003
      155.779007399105500   2.686957663623325E-002   0.000000000000000E+000
      156.821007448597800   2.352073941368088E-002   1.385282156437587E-003
      157.863007498090200   2.036243684266837E-002   0.000000000000000E+000
      158.905007547582500   1.743424852474574E-002   0.000000000000000E+000
      159.947007597074800   1.476801117752310E-002   0.000000000000000E+000
      160.989007646567200   1.238754022330014E-002   0.000000000000000E+000
      162.031007696059500   1.030882610500306E-002   0.000000000000000E+000
      163.073007745551900   8.540670572272861E-003   0.000000000000000E+000
      164.115007795044200   7.085686777495780E-003   0.000000000000000E+000
      165.157007844536600   5.941550252818676E-003   0.000000000000000E+000
      166.199007894028900   5.102362259553702E-003   0.000000000000000E+000
      167.241007943521300   4.559977664401809E-003   0.000000000000000E+000
      168.283007993013600   4.305158705771374E-003   0.000000000000000E+000
      169.325008042505900   4.328442729301526E-003   0.000000000000000E+000
      170.367008091998300   4.620652021969404E-003   0.000000000000000E+000
      171.409008141490600   5.173020888592207E-003   0.000000000000000E+000
      172.451008190983000   5.976961935369508E-003   0.000000000000000E+000
      173.493008240475300   7.023533730112146E-003   0.000000000000000E+000
      174.535008289967700   8.302701168997824E-003   0.000000000000000E+000
      175.577008339460000   9.802496246388220E-003   0.000000000000000E+000
      176.619008388952400   1.150819138338782E-002   0.000000000000000E+000
      177.661008438444700   1.340159278801582E-002   0.000000000000000E+000
      178.703008487937000   1.546055088822288E-002   1.256778598694341E-003
      179.745008537429400   1.765877133217319E-002   0.000000000000000E+000
      180.787008586921700   1.996599417229832E-002   2.712674724667859E-003
      181.829008636414100   2.234858917203863E-002   1.001863404129899E-003
      182.871008685906400   2.477058848992698E-002   1.522093926782976E-003
      183.913008735398800   2.719514076631162E-002   0.000000000000000E+000
      184.955008784891100   2.958632097751190E-002   3.651469033217464E-003
      185.997008834383500   3.191117009340761E-002   0.000000000000000E+000
      187.039008883875800   3.414177431353847E-002   4.661356867850325E-003
      188.081008933368100   3.625713720758984E-002   0.000000000000000E+000
      189.123008982860500   3.824456459560292E-002   0.000000000000000E+000
      190.165009032352800   4.010028685506797E-002   6.054581630172274E-003
      191.207009081845200   4.182909798993596E-002   5.472637091530797E-003
      192.249009131337500   4.344289856741586E-002   0.000000000000000E+000
      193.291009180829900   4.495818266823706E-002   3.358380268634113E-003
      194.333009230322200   4.639268743527600E-002   0.000000000000000E+000
      195.375009279814600   4.776159780534212E-002   9.856471788300562E-003
      196.417009329306900   4.907383368579574E-002   0.000000000000000E+000
      197.459009378799200   5.032900929434703E-002   0.000000000000000E+000
      198.501009428291600   5.151562140469521E-002   7.374924013326638E-004
      199.543009477783900   5.261088785601725E-002   3.726269908977919E-003
      200.585009527276300   5.358243279922392E-002   1.913513567232413E-003
      201.627009576768600   5.439173308880178E-002   8.124003626029276E-004
      202.669009626261000   5.499894781519343E-002   0.000000000000000E+000
      203.711009675753300   5.536850297103976E-002   1.001900422253418E-002
      204.753009725245700   5.547464383154691E-002   5.014008080844970E-003
      205.795009774738000   5.530613224355270E-002   5.790636868516687E-003
      206.837009824230300   5.486936591295610E-002   9.237699815624599E-003
      207.879009873722700   5.418941805670238E-002   2.041846832748461E-003
      208.921009923215000   5.330880166503047E-002   1.738815968491608E-003
      209.963009972707400   5.228410050617777E-002   2.750190754266126E-003
      211.005010022199700   5.118092078449243E-002   4.889889245228889E-005
      212.047010071692100   5.006785067782660E-002   5.134423950568584E-003
      213.089010121184400   4.901023307480513E-002   2.203984346458064E-004
      214.131010170676800   4.806454494672242E-002   8.015474117123126E-004
      215.173010220169100   4.727404393828127E-002   2.984097904736556E-003
      216.215010269661400   4.666611877406385E-002   7.966319732703530E-004
      217.257010319153800   4.625150875566704E-002   0.000000000000000E+000
      218.299010368646100   4.602528764567757E-002   4.151109863261948E-003
      219.341010418138500   4.596928276011844E-002   0.000000000000000E+000
      220.383010467630800   4.605545297281818E-002   4.371032371543134E-003
      221.425010517123200   4.624969436897351E-002   7.415492328653702E-003
      222.467010566615500   4.651557623478020E-002   2.866727163861280E-003
      223.509010616107800   4.681761436352178E-002   2.517856395507771E-004
      224.551010665600200   4.712383488223423E-002   3.178195196589234E-003
      225.593010715092500   4.740753856201867E-002   1.021792808716329E-003
      226.635010764584900   4.764831507049453E-002   5.067488829943582E-003
      227.677010814077200   4.783245947527338E-002   2.009693709995803E-003
      228.719010863569600   4.795300067614378E-002   3.233906305533699E-003
      229.761010913061900   4.800956430390561E-002   0.000000000000000E+000
      230.803010962554300   4.800826878313980E-002   3.356555048501300E-003
      231.845011012046600   4.796180335816799E-002   5.827944822596103E-003
      232.887011061538900   4.788977080728128E-002   2.704587451610301E-003
      233.929011111031300   4.781930241751065E-002   3.090745804692517E-003
      234.971011160523600   4.778587297071701E-002   1.641587823312523E-003
      236.013011210016000   4.783416265804590E-002   1.552810900567334E-003
      237.055011259508300   4.801873665878458E-002   2.601738925664706E-003
      238.097011309000700   4.840425146185701E-002   8.326905112974858E-004
      239.139011358493000   4.906486430410066E-002   1.202923127695932E-003
      240.181011407985400   5.008253517247007E-002   6.898749581078597E-003
      241.223011457477700   5.154398441467969E-002   5.885358357959843E-003
      242.265011506970000   5.353621015024630E-002   9.335165993302903E-004
      243.307011556462400   5.614067258265371E-002   2.039816089968824E-003
      244.349011605954700   5.942649565133244E-002   1.467310277543567E-003
      245.391011655447100   6.344328430638305E-002   2.414669291938468E-003
      246.433011704939400   6.821436253350149E-002   1.198793669333158E-004
      247.475011754431800   7.373135632734085E-002   0.000000000000000E+000
      248.517011803924100   7.995103896638681E-002   2.697531620224265E-003
      249.559011853416500   8.679520289044981E-002   0.000000000000000E+000
      250.601011902908800   9.415402709970806E-002   5.957113814439643E-003
      251.643011952401100   1.018930011315772E-001   5.806460189742612E-003
      252.685012001893500   1.098629988554657E-001   3.409340463908115E-003
      253.727012051385800   1.179126349169015E-001   1.805953554473100E-003
      254.769012100878200   1.259016549981924E-001   8.928583646206531E-003
      255.811012150370500   1.337138716881525E-001   2.374057810738883E-002
      256.853012199862900   1.412681059197131E-001   8.617832617816115E-003
      257.895012249355200   1.485257491178677E-001   2.485662301719616E-003
      258.937012298847600   1.554939136756404E-001   2.173241948066569E-002
      259.979012348339900   1.622236510621290E-001   9.351206110845027E-003
      261.021012397832200   1.688033259983656E-001   0.000000000000000E+000
      262.063012447324600   1.753478639001840E-001   2.220026913400647E-002
      263.105012496816900   1.819851529444172E-001   1.940803738639254E-003
      264.147012546309300   1.888413016652704E-001   1.693177781308425E-003
      265.189012595801600   1.960266629523700E-001   1.569366830447636E-002
      266.231012645294000   2.036244956253252E-001   2.824536608283229E-003
      267.273012694786300   2.116838379504494E-001   1.206110633728810E-002
      268.315012744278700   2.202176427835715E-001   8.652493993001567E-003
      269.357012793771000   2.292065363500093E-001   1.689042179795091E-002
      270.399012843263300   2.386078054162800E-001   2.940182777854950E-003
      271.441012892755700   2.483684996416431E-001   8.753447870904495E-003
      272.483012942248000   2.584409641290166E-001   1.599152063168975E-002
      273.525012991740400   2.687987777574296E-001   5.699890336405978E-002
      274.567013041232700   2.794510148285654E-001   1.413356441154323E-002
      275.609013090725100   2.904529729047294E-001   5.453279847039517E-003
      276.651013140217400   3.019119724529400E-001   1.109352665955154E-002
      277.693013189709800   3.139874487958315E-001   4.779329271947129E-004
      278.735013239202100   3.268852163403123E-001   2.999947050496926E-002
      279.777013288694400   3.408463807966429E-001   2.213669049188420E-002
      280.819013338186800   3.561318196946214E-001   8.304204682368024E-003
      281.861013387679100   3.730033955744590E-001   3.027789941535955E-002
      282.903013437171500   3.917031075462513E-001   3.795690847328466E-002
      283.945013486663800   4.124312695362633E-001   6.172249544939575E-003
      284.987013536156200   4.353246070339003E-001   3.797841855825756E-003
      286.029013585648500   4.604349846858470E-001   0.000000000000000E+000
      287.071013635140800   4.877094038006757E-001   1.969284416220732E-002
      288.113013684633200   5.169720000175307E-001   2.866560947295367E-002
      289.155013734125500   5.479090354649449E-001   4.118346442680229E-002
      290.197013783617900   5.800582657766026E-001   4.378079674697493E-002
      291.239013833110200   6.128044637204207E-001   3.219613005993047E-002
      292.281013882602600   6.453831534250309E-001   2.850260211070012E-002
      293.323013932094900   6.768945998741712E-001   1.579974275486806E-002
      294.365013981587300   7.063296842099504E-001   4.700517788129527E-002
      295.407014031079600   7.326084183951338E-001   5.738593342956118E-002
      296.449014080571900   7.546305466465123E-001   2.790560089986631E-002
      297.491014130064300   7.713360805822159E-001   5.385549967007700E-002
      298.533014179556600   7.817719439323653E-001   1.227541289177447E-001
      299.575014229049000   7.851594400508805E-001   0.000000000000000E+000
      300.617014278541300   7.809562863296262E-001   1.009763855821065E-001
      301.659014328033700   7.689067186666855E-001   1.258347255545719E-002
      302.701014377526000   7.490737895464948E-001   1.299378830338391E-001
      303.743014427018400   7.218494615773344E-001   6.846536016978455E-003
      304.785014476510700   6.879402838911135E-001   1.138549125004199E-001
      305.827014526003000   6.483290516294057E-001   5.019991194161753E-002
      306.869014575495400   6.042155231690704E-001   3.031659679030975E-002
      307.911014624987700   5.569416164820307E-001   1.644858400512923E-003
      308.953014674480100   5.079081803953628E-001   1.044498947927342E-003
      309.995014723972400   4.584911993813805E-001   3.986873063313529E-002
      311.037014773464800   4.099650495356244E-001   1.291748349584913E-002
      312.079014822957100   3.634392464467429E-001   0.000000000000000E+000
      313.121014872449500   3.198132239752511E-001   7.475385354640897E-004
      314.163014921941800   2.797513684655206E-001   1.290276196766901E-002
      315.205014971434100   2.436781591989256E-001   0.000000000000000E+000
      316.247015020926500   2.117911655045383E-001   1.480242651106021E-003
      317.289015070418800   1.840880816714459E-001   8.913423535744494E-003
      318.331015119911200   1.604030906726008E-001   8.408371591380318E-003
      319.373015169403500   1.404476635251786E-001   1.077393585354211E-002
      320.415015218895900   1.238513400686701E-001   0.000000000000000E+000
      321.457015268388200   1.101989359785166E-001   0.000000000000000E+000
      322.499015317880600   9.906177564147572E-002   5.906379394582524E-003
      323.541015367372900   9.002175535904110E-002   8.120494483982074E-003
      324.583015416865200   8.268812215864525E-002   0.000000000000000E+000
      325.625015466357600   7.670768946399617E-002   0.000000000000000E+000
      326.667015515849900   7.176974276119498E-002   6.357504442954918E-003
      327.709015565342300   6.760711480440446E-002   3.395925488891549E-003
      328.751015614834600   6.399487474918354E-002   1.888454493149876E-003
      329.793015664327000   6.074785089696071E-002   4.408685767204371E-003
      330.835015713819300   5.771787479943812E-002   0.000000000000000E+000
      331.877015763311700   5.479127277473497E-002   1.019136066503977E-002
      332.919015812804000   5.188680146899288E-002   1.804211462510868E-003
      333.961015862296300   4.895396818490107E-002   3.553201731006747E-003
      335.003015911788700   4.597151399935381E-002   2.445869015214072E-003
      336.045015961281000   4.294576915596016E-002   0.000000000000000E+000
      337.087016010773400   3.990860279274639E-002   0.000000000000000E+000
      338.129016060265700   3.691476110194998E-002   1.249527033808742E-002
      339.171016109758100   3.403849434396049E-002   0.000000000000000E+000
      340.213016159250400   3.136948925436963E-002   0.000000000000000E+000
      341.255016208742800   2.900822861150415E-002   0.000000000000000E+000
      342.297016258235100   2.706097929313358E-002   0.000000000000000E+000
      343.339016307727400   2.563465624186149E-002   0.000000000000000E+000
      344.381016357219800   2.483182161399894E-002   0.000000000000000E+000
      345.423016406712100   2.474606131553894E-002   0.000000000000000E+000
      346.465016456204500   2.545794458762773E-002   0.000000000000000E+000
      347.507016505696800   2.703172726840850E-002   0.000000000000000E+000
      348.549016555189200   2.951291549824534E-002   0.000000000000000E+000
      349.591016604681500   3.292676997189770E-002   0.000000000000000E+000
      350.633016654173800   3.727780255278642E-002   0.000000000000000E+000
      351.675016703666200   4.255029386171573E-002   0.000000000000000E+000
      352.717016753158500   4.870983648273050E-002   4.824134531208404E-003
      353.759016802650900   5.570587815318212E-002   0.000000000000000E+000
      354.801016852143200   6.347520038579078E-002   0.000000000000000E+000
      355.843016901635600   7.194622309467746E-002   0.000000000000000E+000
      356.885016951127900   8.104398261900536E-002   6.935241600341915E-003
      357.927017000620300   9.069559950253678E-002   3.795255342126852E-003
      358.969017050112600   1.008360429400502E-001   7.279433202703678E-003
      360.011017099604900   1.114140151258636E-001   1.545078509063423E-002
      361.053017149097300   1.223978165046942E-001   0.000000000000000E+000
      362.095017198589600   1.337810983849301E-001   3.201083723446176E-003
      363.137017248082000   1.455884415866922E-001   4.437811077895294E-003
      364.179017297574300   1.578806958452590E-001   1.875104143616432E-002
      365.221017347066700   1.707599568659141E-001   5.139972477073954E-003
      366.263017396559000   1.843739411078164E-001   1.430741296650241E-002
      367.305017446051400   1.989193555351116E-001   0.000000000000000E+000
      368.347017495543700   2.146436835321123E-001   1.715945005454899E-002
      369.389017545036000   2.318446683582305E-001   5.692363230724227E-003
      370.431017594528400   2.508667294446286E-001   1.979379752409201E-002
      371.473017644020700   2.720936472692885E-001   1.467243537962639E-002
      372.515017693513100   2.959371322709435E-001   1.491095513766017E-002
      373.557017743005400   3.228213505283660E-001   2.745438227116913E-003
      374.599017792497800   3.531640672314200E-001   3.295572343243395E-002
      375.641017841990100   3.873556948237222E-001   6.900173866700216E-003
      376.683017891482500   4.257380644437552E-001   8.301234598183887E-003
      377.725017940974800   4.685850281493146E-001   1.641270351000953E-002
      378.767017990467100   5.160869113798497E-001   3.420449223584680E-002
      379.809018039959500   5.683402890011796E-001   2.091193267686261E-002
      380.851018089451800   6.253435618936937E-001   2.552346318824278E-002
      381.893018138944200   6.869974854691487E-001   9.390106105884749E-003
      382.935018188436500   7.531083834183233E-001   1.770328988782747E-002
      383.977018237928900   8.233905950088500E-001   1.370364803646747E-002
      385.019018287421200   8.974641100425589E-001   1.351171257272049E-001
      386.061018336913600   9.748436516652596E-001   3.990318138764104E-002
      387.103018386405900        1.054916846368817   2.500672006591029E-002
      388.145018435898200        1.136911532781200   1.023572148829979E-001
      389.187018485390600        1.219855412744735   8.585488701944988E-002
      390.229018534882900        1.302534605382940   5.171719585055272E-002
      391.271018584375300        1.383460526022088   6.883767380564003E-002
      392.313018633867600        1.460856137303994   7.834219086949841E-002
      393.355018683360000        1.532672393029058   6.073901678188667E-002
      394.397018732852300        1.596643282812231   1.004914518137232E-001
      395.439018782344700        1.650383356937356   3.994024075907163E-002
      396.481018831837000        1.691525482659588   1.259882648867982E-001
      397.523018881329300        1.717889768972279   6.310428851094563E-002
      398.565018930821700        1.727668261042243   2.110930996427106E-001
      399.607018980314000        1.719605348216510   2.691943524859841E-001
      400.649019029806400        1.693151844168680   7.781154994383976E-002
      401.691019079298700        1.648571955812780   2.918102607131055E-001
      402.733019128791100        1.586986870191284   6.893499914800896E-002
      403.775019178283400        1.510345879562339   1.000591035557253E-001
      404.817019227775800        1.421324764667415   8.244229060388296E-002
      405.859019277268100        1.323160196528102   1.088120203251842E-001
      406.901019326760400        1.219436786132065   0.000000000000000E+000
      407.943019376252800        1.113848912184698   6.557055314111243E-002
      408.985019425745100        1.009961817297620   0.000000000000000E+000
      410.027019475237500   9.109954537462288E-001   1.713485915741755E-002
      411.069019524729800   8.196505069867222E-001   0.000000000000000E+000
      412.111019574222200   7.379897175658486E-001   1.194446528907988E-002
      413.153019623714500   6.673801455532372E-001   3.121863019892743E-003
      414.195019673206800   6.084945545561920E-001   1.169914679006541E-002
      415.237019722699200   5.613637055087115E-001   0.000000000000000E+000
      416.279019772191500   5.254668444416247E-001   0.000000000000000E+000
      417.321019821683900   4.998454719887026E-001   3.206590133796147E-002
      418.363019871176200   4.832256200841005E-001   5.622971972683470E-002
      419.405019920668600   4.741359891010932E-001   3.396844551144355E-002
      420.447019970160900   4.710127946446092E-001   5.308190247450373E-003
      421.489020019653300   4.722862656071687E-001   5.686120414113943E-002
      422.531020069145600   4.764476457694193E-001   7.927608362246029E-003
      423.573020118637900   4.820986309557266E-001   2.026062422967003E-002
      424.615020168130300   4.879870074656325E-001   2.047712337593040E-002
      425.657020217622600   4.930327214291249E-001   2.337887137298733E-002
      426.699020267115000   4.963478695325614E-001   0.000000000000000E+000
      427.741020316607300   4.972525580674536E-001   1.192911712686197E-002
      428.783020366099700   4.952867574745773E-001   7.286665952222342E-002
      429.825020415592000   4.902167156356417E-001   1.200584144753861E-001
      430.867020465084400   4.820336024611969E-001   0.000000000000000E+000
      431.909020514576700   4.709420574096779E-001   5.540146164049285E-002
      432.951020564069000   4.573371817170993E-001   2.278801282671480E-002
      433.993020613561400   4.417700266616551E-001   0.000000000000000E+000
      435.035020663053700   4.249034038821313E-001   2.821466385070931E-002
      436.077020712546100   4.074614646778007E-001   1.033042559650591E-002
      437.119020762038400   3.901775984307432E-001   1.064404225271812E-002
      438.161020811530800   3.737455545605862E-001   4.255893367124985E-002
      439.203020861023100   3.587782388479108E-001   0.000000000000000E+000
      440.245020910515500   3.457774841207080E-001   2.421522915841880E-002
      441.287020960007800   3.351164880957672E-001   9.698211295650350E-003
      442.329021009500100   3.270348573480343E-001   1.581634168340754E-004
      443.371021058992500   3.216446073586418E-001   6.343452836609772E-003
      444.413021108484800   3.189442994136938E-001   0.000000000000000E+000
      445.455021157977200   3.188379053702691E-001   6.575278280648006E-002
      446.497021207469500   3.211550286422201E-001   0.000000000000000E+000
      447.539021256961900   3.256697145891236E-001   1.021810225162652E-002
      448.581021306454200   3.321161096750467E-001   2.662988013400532E-002
      449.623021355946600   3.402004740327106E-001   1.158454421705356E-002
      450.665021405438900   3.496102920583910E-001   1.729408013748093E-002
      451.707021454931200   3.600222466768995E-001   1.742452604523289E-002
      452.749021504423600   3.711114500569268E-001   0.000000000000000E+000
      453.791021553915900   3.825644421744675E-001   3.425542376350447E-002
      454.833021603408300   3.940980379646873E-001   2.085273222151308E-002
      455.875021652900600   4.054851623148744E-001   5.950953341705030E-003
      456.917021702393000   4.165874741245675E-001   5.229862311012605E-002
      457.959021751885300   4.273930241669178E-001   2.925556882348095E-002
      459.001021801377700   4.380556379488663E-001   0.000000000000000E+000
      460.043021850870000   4.489314013498378E-001   4.511416990250194E-002
      461.085021900362300   4.606067741753085E-001   1.822472212135810E-002
      462.127021949854700   4.739126362481854E-001   5.544709932758527E-002
      463.169021999347000   4.899190763691065E-001   1.931794526208920E-002
      464.211022048839400   5.099069657511227E-001   4.360473338175851E-002
      465.253022098331700   5.353142163559206E-001   4.374116060685143E-002
      466.295022147824100   5.676569293051517E-001   1.970748902362132E-002
      467.337022197316400   6.084281517436753E-001   0.000000000000000E+000
      468.379022246808700   6.589794245372066E-001   1.162292516174320E-002
      469.421022296301100   7.203924754268930E-001   0.000000000000000E+000
      470.463022345793400   7.933500921838315E-001   1.551347643036316E-002
      471.505022395285800   8.780162529568794E-001   1.512184290792174E-002
      472.547022444778100   9.739359069747275E-001   3.569039332581246E-002
      473.589022494270500        1.079964344844788   1.255238147828674E-003
      474.631022543762800        1.194234865615915   5.894699687489988E-002
      475.673022593255200        1.314171458257837   7.064554127819132E-002
      476.715022642747500        1.436550521624658   6.271506126290380E-002
      477.757022692239800        1.557612348053715   1.029341736591239E-001
      478.799022741732200        1.673219352174445   1.375352755410240E-002
      479.841022791224500        1.779054073270210   1.298052148755923E-001
      480.883022840716900        1.870846126444721   8.020998853770414E-002
      481.925022890209200        1.944613893093130   3.651992604230208E-001
      482.967022939701600        1.996904217652024   1.296762687632601E-001
      484.009022989193900        2.025012085637993   8.574322288889726E-002
      485.051023038686300        2.027162491371067   2.773827445281100E-001
      486.093023088178600        2.002638627010439   1.112251509416678E-001
      487.135023137670900        1.951844129215384   2.183067340752469E-001
      488.177023187163300        1.876292197500155   1.410445109936429E-001
      489.219023236655600        1.778520536706918   1.066480023885374E-001
      490.261023286148000        1.661937682713848   2.835297415288001E-001
      491.303023335640300        1.530612629050679   1.289760064466564E-001
      492.345023385132700        1.389025026993344   0.000000000000000E+000
      493.387023434625000        1.241796894817439   8.334903969555213E-003
      494.429023484117400        1.093428234408733   1.396776822067818E-002
      495.471023533609700   9.480579820351038E-001   0.000000000000000E+000
      496.513023583102000   8.092684147604933E-001   0.000000000000000E+000
      497.555023632594400   6.799459301101274E-001   0.000000000000000E+000
      498.597023682086700   5.622047249072601E-001   0.000000000000000E+000
      499.639023731579100   4.573731915934625E-001   0.000000000000000E+000
      500.681023781071400   3.660367133523771E-001   0.000000000000000E+000
      501.723023830563800   2.881257258205824E-001   0.000000000000000E+000
      502.765023880056100   2.230349235643859E-001   0.000000000000000E+000
      503.807023929548500   1.697585070100938E-001   0.000000000000000E+000
      504.849023979040800   1.270272554131135E-001   0.000000000000000E+000
      505.891024028533100   9.343557983514912E-002   0.000000000000000E+000
      506.933024078025500   6.755000380793599E-002   0.000000000000000E+000
      507.975024127517800   4.799414157359220E-002   0.000000000000000E+000
      509.017024177010200   3.350865955988967E-002   0.000000000000000E+000
      510.059024226502500   2.298751884274183E-002   0.000000000000000E+000
      511.101024275994900   1.549378159452919E-002   0.000000000000000E+000
      512.143024325487200   1.025937128451621E-002   0.000000000000000E+000
      513.185024374979600   6.673492104742321E-003   0.000000000000000E+000
      514.227024424471900   4.264115034476172E-003   0.000000000000000E+000
      515.269024473964200   2.676241080245494E-003   0.000000000000000E+000
      516.311024523456600   1.649764681150225E-003   0.000000000000000E+000
      517.353024572948900   9.988529363031133E-004   0.000000000000000E+000
      518.395024622441300   5.939479779947256E-004   0.000000000000000E+000
      519.437024671933600   3.468558775760206E-004   0.000000000000000E+000
      520.479024721426000   1.989260686754992E-004   0.000000000000000E+000
      521.521024770918300   1.120381718810663E-004   0.000000000000000E+000
      522.563024820410700   6.196735129040120E-005   0.000000000000000E+000
      523.605024869903000   3.365692399479530E-005   0.000000000000000E+000
      524.647024919395300   1.795119073883036E-005   0.000000000000000E+000
      525.689024968887700   9.401839773480393E-006   0.000000000000000E+000
      526.731025018380000   4.835339658204484E-006   0.000000000000000E+000
      527.773025067872400   2.441910435103220E-006   0.000000000000000E+000
      528.815025117364700   1.210919265463172E-006   0.000000000000000E+000
      529.857025166857100   5.896270191798635E-007   0.000000000000000E+000
      530.899025216349400   2.819097339854799E-007   0.000000000000000E+000
      531.941025265841700   1.323447401887500E-007   0.000000000000000E+000
      532.983025315334100   6.100425810130210E-008   0.000000000000000E+000
      534.025025364826400   2.760977196896589E-008   0.000000000000000E+000
      535.067025414318800   1.226892171859287E-008   0.000000000000000E+000
      536.109025463811100   5.352810375111281E-009   0.000000000000000E+000
      537.151025513303500   2.292869974145154E-009   0.000000000000000E+000
      538.193025562795800   9.642475091882921E-010   0.000000000000000E+000
      539.235025612288200   3.981051292389008E-010   0.000000000000000E+000
      540.277025661780500   1.613596653525710E-010   0.000000000000000E+000
      541.319025711272800   6.420475421365915E-011   0.000000000000000E+000
      542.361025760765200   2.507844782575214E-011   0.000000000000000E+000
      543.403025810257500   9.615700666999739E-012   0.000000000000000E+000
      544.445025859749900   3.619036172487683E-012   0.000000000000000E+000
      545.487025909242200   1.336967665810198E-012   0.000000000000000E+000
      546.529025958734600   4.847843865895484E-013   0.000000000000000E+000
      547.571026008226900   1.725279123999464E-013   0.000000000000000E+000
      548.613026057719300   6.026095761429505E-014   0.000000000000000E+000
      549.655026107211600   2.065671194471929E-014   0.000000000000000E+000
      550.697026156703900   6.948918450134589E-015   0.000000000000000E+000
      551.739026206196300   2.293962400810256E-015   0.000000000000000E+000
      552.781026255688600   7.431056450428296E-016   0.000000000000000E+000
      553.823026305181000   2.362066580098689E-016   0.000000000000000E+000
      554.865026354673300   7.367043129419704E-017   0.000000000000000E+000
      555.907026404165700   2.254426708001829E-017   0.000000000000000E+000
      556.949026453658000   6.768670678531702E-018   0.000000000000000E+000
      557.991026503150400   1.993782497875388E-018   0.000000000000000E+000
      559.033026552642700   5.761590431871779E-019   0.000000000000000E+000
      560.075026602135000   1.633355123744320E-019   0.000000000000000E+000
      561.117026651627400   4.542305059654871E-020   0.000000000000000E+000
      562.159026701119700   1.239120799066101E-020   0.000000000000000E+000
      563.201026750612100   3.315716115110967E-021   0.000000000000000E+000
      564.243026800104400   8.702670100932234E-022   0.000000000000000E+000
      565.285026849596800   2.240396153171419E-022   0.000000000000000E+000
      566.327026899089100   5.656924234885587E-023   0.000000000000000E+000
      567.369026948581500   1.400895660113304E-023   0.000000000000000E+000
      568.411026998073800   3.402422586526808E-024   0.000000000000000E+000
      569.453027047566100   8.104298277986335E-025   0.000000000000000E+000
      570.495027097058500   1.893108308998287E-025   0.000000000000000E+000
      571.537027146550800   4.336676989774866E-026   0.000000000000000E+000
      572.579027196043200   9.742029704942133E-027   0.000000000000000E+000
      573.621027245535500   2.146062012187994E-027   0.000000000000000E+000
      574.663027295027900   4.635810718607729E-028   0.000000000000000E+000
      575.705027344520200   9.819522543550028E-029   0.000000000000000E+000
      576.747027394012600   2.039517286857882E-029   0.000000000000000E+000
      577.789027443504900   4.153634625648536E-030   0.000000000000000E+000
      578.831027492997200   8.294401222430481E-031   0.000000000000000E+000
      579.873027542489600   1.624014922180977E-031   0.000000000000000E+000
      580.915027591981900   3.117712008269639E-032   0.000000000000000E+000
      581.957027641474300   5.868351762264823E-033   0.000000000000000E+000
      582.999027690966600   1.082988804941969E-033   0.000000000000000E+000
      584.041027740459000   1.959536486932016E-034   0.000000000000000E+000
      585.083027789951300   3.476149983924118E-035   0.000000000000000E+000
      586.125027839443700   6.045802380175407E-036   0.000000000000000E+000
      587.167027888936000   1.030895166946046E-036   0.000000000000000E+000
      588.209027938428300   1.723357149067940E-037   0.000000000000000E+000
      589.251027987920700   2.824435717234821E-038   0.000000000000000E+000
      590.293028037413000   4.538155419838937E-039   0.000000000000000E+000
      591.335028086905400   7.148488033785080E-040   0.000000000000000E+000
      592.377028136397700   1.103906546416920E-040   0.000000000000000E+000
      593.419028185890100   1.671206263089378E-041   0.000000000000000E+000
      594.461028235382400   2.480298705051472E-042   0.000000000000000E+000
      595.503028284874700   3.608700637896308E-043   0.000000000000000E+000
      596.545028334367100   5.147159206918182E-044   0.000000000000000E+000
      597.587028383859400   7.196997226174755E-045   0.000000000000000E+000
      598.629028433351800   9.865051025031652E-046   0.000000000000000E+000
      599.671028482844100   1.325589446872716E-046   0.000000000000000E+000
      600.713028532336500   1.746135826741184E-047   0.000000000000000E+000
      601.755028581828800   2.254779157562131E-048   0.000000000000000E+000
      602.797028631321200   2.854202973521213E-049   0.000000000000000E+000
      603.839028680813500   3.541755071379583E-050   0.000000000000000E+000
      604.881028730305800   4.308271971013267E-051   0.000000000000000E+000
      605.923028779798200   5.137322306496953E-052   0.000000000000000E+000
      606.965028829290500   6.005068016727900E-053   0.000000000000000E+000
      608.007028878782900   6.880893886306792E-054   0.000000000000000E+000
      609.049028928275200   7.728871551002831E-055   0.000000000000000E+000
      610.091028977767600   8.510012365452145E-056   0.000000000000000E+000
      611.133029027259900   9.185140790954289E-057   0.000000000000000E+000
      612.175029076752300   9.718107462605878E-058   0.000000000000000E+000
      613.217029126244600   1.007898105185614E-058   0.000000000000000E+000
      614.259029175736900   1.024682874370487E-059   0.000000000000000E+000
      615.301029225229300   1.021172645442334E-060   0.000000000000000E+000
      616.343029274721600   9.975730322761005E-062   0.000000000000000E+000
      617.385029324214000   9.552677207553228E-063   0.000000000000000E+000
      618.427029373706300   8.966841126143234E-064   0.000000000000000E+000
      619.469029423198700   8.250627122759536E-065   0.000000000000000E+000
      620.511029472691000   7.441607289415904E-066   0.000000000000000E+000
      621.553029522183400   6.579275464587435E-067   0.000000000000000E+000
      622.595029571675700   5.701907937561944E-068   0.000000000000000E+000
      623.637029621168000   4.843869698787481E-069   0.000000000000000E+000
      624.679029670660400   4.033612469833016E-070   0.000000000000000E+000
      625.721029720152700   3.292492083588522E-071   0.000000000000000E+000
      626.763029769645100   2.634411241958266E-072   0.000000000000000E+000
      627.805029819137400   2.066189305117279E-073   0.000000000000000E+000
      628.847029868629800   1.588487589176653E-074   0.000000000000000E+000
      629.889029918122100   1.197082880148991E-075   0.000000000000000E+000
      630.931029967614500   8.842820599819006E-077   0.000000000000000E+000
      631.973030017106800   6.402994908262335E-078   0.000000000000000E+000
      633.015030066599100   4.544653909562713E-079   0.000000000000000E+000
      634.057030116091500   3.161865434172028E-080   0.000000000000000E+000
      635.099030165583800   2.156306378813198E-081   0.000000000000000E+000
      636.141030215076200   1.441457024948950E-082   0.000000000000000E+000
      637.183030264568500   9.445321030231377E-084   0.000000000000000E+000
      638.225030314060900   6.066737498056528E-085   0.000000000000000E+000
      639.267030363553200   3.819590626689031E-086   0.000000000000000E+000
      640.309030413045600   2.357226213695560E-087   0.000000000000000E+000
      641.351030462537900   1.425962946798780E-088   0.000000000000000E+000
      642.393030512030200   8.455464592971482E-090   0.000000000000000E+000
      643.435030561522600   4.914605914275026E-091   0.000000000000000E+000
      644.477030611014900   2.800023372002728E-092   0.000000000000000E+000
      645.519030660507300   1.563709604596799E-093   0.000000000000000E+000
      646.561030709999600   8.559961416709760E-095   0.000000000000000E+000
      647.603030759492000   4.593127945118147E-096   0.000000000000000E+000
      648.645030808984300   2.415828484912776E-097   0.000000000000000E+000
      649.687030858476700   1.245501530215088E-098   0.000000000000000E+000
      650.729030907969000   6.294233493444622E-100   0.000000000000000E+000
      651.771030957461300   3.117896263477145E-101   0.000000000000000E+000
      652.813031006953700   1.513911611584429E-102   0.000000000000000E+000
      653.855031056446000   7.205419176838969E-104   0.000000000000000E+000
      654.897031105938400   3.361535388400819E-105   0.000000000000000E+000
      655.939031155430700   1.537218735909326E-106   0.000000000000000E+000
      656.981031204923100   6.890536554217275E-108   0.000000000000000E+000
      658.023031254415400   3.027538361564423E-109   0.000000000000000E+000
      659.065031303907700   1.303903248531315E-110   0.000000000000000E+000
      660.107031353400100   5.504527439918515E-112   0.000000000000000E+000
      661.149031402892400   2.277789271679991E-113   0.000000000000000E+000
      662.191031452384800   9.239016563695672E-115   0.000000000000000E+000
      663.233031501877100   3.673301071520529E-116   0.000000000000000E+000
      664.275031551369500   1.431547502010351E-117   0.000000000000000E+000
      665.317031600861800   5.468564575122258E-119   0.000000000000000E+000
      666.359031650354200   2.047666185834890E-120   0.000000000000000E+000
      667.401031699846500   7.515590309561701E-122   0.000000000000000E+000
      668.443031749338800   2.703865340262620E-123   0.000000000000000E+000
      669.485031798831200   9.535093181619996E-125   0.000000000000000E+000
      670.527031848323500   3.295965440305562E-126   0.000000000000000E+000
      671.569031897815900   1.116755469866423E-127   0.000000000000000E+000
      672.611031947308200   3.708951617100503E-129   0.000000000000000E+000
      673.653031996800600   1.207429550831611E-130   0.000000000000000E+000
      674.695032046292900   3.852919196821101E-132   0.000000000000000E+000
      675.737032095785300   1.205134132753022E-133   0.000000000000000E+000
      676.779032145277600   3.694861626548419E-135   0.000000000000000E+000
      677.821032194769900   1.110396791752171E-136   0.000000000000000E+000
      678.863032244262300   3.270961037995365E-138   0.000000000000000E+000
      679.905032293754600   9.444731671474196E-140   0.000000000000000E+000
      680.947032343247000   2.673134962896894E-141   0.000000000000000E+000
      681.989032392739300   7.415989209284321E-143   0.000000000000000E+000
      683.031032442231700   2.016666881283103E-144   0.000000000000000E+000
      684.073032491724000   5.375465170157911E-146   0.000000000000000E+000
      685.115032541216400   1.404477171265192E-147   0.000000000000000E+000
      686.157032590708700   3.596913564089068E-149   0.000000000000000E+000
      687.199032640201000   9.029463444245310E-151   0.000000000000000E+000
      688.241032689693400   2.221828094660832E-152   0.000000000000000E+000
      689.283032739185700   5.358897805729542E-154   0.000000000000000E+000
      690.325032788678100   1.266942638680040E-155   0.000000000000000E+000
      691.367032838170400   2.935991762615490E-157   0.000000000000000E+000
      692.409032887662800   6.669128171338667E-159   0.000000000000000E+000
      693.451032937155100   1.484908166383548E-160   0.000000000000000E+000
      694.493032986647500   3.240756333707620E-162   0.000000000000000E+000
      695.535033036139800   6.932811058030098E-164   0.000000000000000E+000
      696.577033085632100   1.453745912666303E-165   0.000000000000000E+000
      697.619033135124500   2.988021786675049E-167   0.000000000000000E+000
      698.661033184616800   6.019980426132449E-169   0.000000000000000E+000
      699.703033234109200   1.188837297022902E-170   0.000000000000000E+000
      700.745033283601500   2.301260297578966E-172   0.000000000000000E+000
      701.787033333093900   4.366414974751069E-174   0.000000000000000E+000
      702.829033382586200   8.120825342509473E-176   0.000000000000000E+000
      703.871033432078600   1.480441301587316E-177   0.000000000000000E+000
      704.913033481570900   2.645440738225912E-179   0.000000000000000E+000
      705.955033531063200   4.633622684515139E-181   0.000000000000000E+000
      706.997033580555600   7.955345463168194E-183   0.000000000000000E+000
      708.039033630047900   1.338792077974349E-184   0.000000000000000E+000
      709.081033679540300   2.208426256277615E-186   0.000000000000000E+000
      710.123033729032600   3.570822922139566E-188   0.000000000000000E+000
      711.165033778525000   5.659386272111745E-190   0.000000000000000E+000
      712.207033828017300   8.791964759377730E-192   0.000000000000000E+000
      713.249033877509700   1.338807348058018E-193   0.000000000000000E+000
      714.291033927002000   1.998323299988746E-195   0.000000000000000E+000
      715.333033976494300   2.923673713664031E-197   0.000000000000000E+000
      716.375034025986700   4.192832475965996E-199   0.000000000000000E+000
      717.417034075479000   5.893883481892798E-201   0.000000000000000E+000
      718.459034124971400   8.121027495702555E-203   0.000000000000000E+000
      719.501034174463700   1.096821078694817E-204   0.000000000000000E+000
      720.543034223956100   1.452031174902146E-206   0.000000000000000E+000
      721.585034273448400   1.884219145662111E-208   0.000000000000000E+000
      722.627034322940700   2.396636545605009E-210   0.000000000000000E+000
      723.669034372433100   2.988052411371314E-212   0.000000000000000E+000
      724.711034421925400   3.651652884595491E-214   0.000000000000000E+000
      725.753034471417800   4.374274017522945E-216   0.000000000000000E+000
      726.795034520910100   5.136149759373735E-218   0.000000000000000E+000
      727.837034570402500   5.911321023913454E-220   0.000000000000000E+000
      728.879034619894800   6.668782644467452E-222   0.000000000000000E+000
      729.921034669387200   7.374349374566807E-224   0.000000000000000E+000
      730.963034718879500   7.993113198405199E-226   0.000000000000000E+000
      732.005034768371800   8.492260431588292E-228   0.000000000000000E+000
      733.047034817864200   8.843938438644864E-230   0.000000000000000E+000
      734.089034867356500   9.027825655443774E-232   0.000000000000000E+000
      735.131034916848900   9.033075543372992E-234   0.000000000000000E+000
      736.173034966341200   8.859375880149649E-236   0.000000000000000E+000
      737.215035015833600   8.516979502670731E-238   0.000000000000000E+000
      738.257035065325900   8.025702291880876E-240   0.000000000000000E+000
      739.299035114818300   7.413024600702747E-242   0.000000000000000E+000
      740.341035164310600   6.711549089271472E-244   0.000000000000000E+000
      741.383035213802900   5.956141648712819E-246   0.000000000000000E+000
      742.425035263295300   5.181102260375681E-248   0.000000000000000E+000
      743.467035312787600   4.417679390898652E-250   0.000000000000000E+000
      744.509035362280000   3.692164918507991E-252   0.000000000000000E+000
      745.551035411772300   3.024703719038150E-254   0.000000000000000E+000
      746.593035461264700   2.428842900201245E-256   0.000000000000000E+000
      747.635035510757000   1.911748820110411E-258   0.000000000000000E+000
      748.677035560249400   1.474949131578155E-260   0.000000000000000E+000
      749.719035609741700   1.115419019832726E-262   0.000000000000000E+000
      750.761035659234000   8.268254314260121E-265   0.000000000000000E+000
      751.803035708726400   6.007646497873036E-267   0.000000000000000E+000
      752.845035758218700   4.278678586088680E-269   0.000000000000000E+000
      753.887035807711100   2.986961972328201E-271   0.000000000000000E+000
      754.929035857203400   2.043922605384054E-273   0.000000000000000E+000
      755.971035906695800   1.370925677459550E-275   0.000000000000000E+000
      757.013035956188100   9.013180592390129E-278   0.000000000000000E+000
      758.055036005680500   5.808405403464333E-280   0.000000000000000E+000
      759.097036055172800   3.669023069983865E-282   0.000000000000000E+000
      760.139036104665100   2.271740007193654E-284   0.000000000000000E+000
      761.181036154157500   1.378737096335266E-286   0.000000000000000E+000
      762.223036203649800   8.201984321649038E-289   0.000000000000000E+000
      763.265036253142200   4.782676839825664E-291   0.000000000000000E+000
      764.307036302634500   2.733617568581235E-293   0.000000000000000E+000
      765.349036352126900   1.531507344606670E-295   0.000000000000000E+000
      766.391036401619200   8.410368165255370E-298   0.000000000000000E+000
      767.433036451111600   4.527156602344056E-300   0.000000000000000E+000
      768.475036500603900   2.388639472031140E-302   0.000000000000000E+000
      769.517036550096200   1.235350679997928E-304   0.000000000000000E+000
      770.559036599588600   6.262452863785338E-307   0.000000000000000E+000
      771.601036649080900   3.111811128910850E-309   0.000000000000000E+000
      772.643036698573300   1.515641639987215E-311   0.000000000000000E+000
      773.685036748065600   7.235930006057402E-314   0.000000000000000E+000
      774.727036797558000   3.386154001751151E-316   0.000000000000000E+000
      775.769036847050300   1.553223814769877E-318   0.000000000000000E+000
      776.811036896542700   6.981147575736814E-321   0.000000000000000E+000
      777.853036946035000   2.964393875047479E-323   0.000000000000000E+000
      778.895036995527300   0.000000000000000E+000   0.000000000000000E+000
      779.937037045019700   0.000000000000000E+000   0.000000000000000E+000
      780.979037094512000   0.000000000000000E+000   0.000000000000000E+000
      782.021037144004400   0.000000000000000E+000   0.000000000000000E+000
      783.063037193496700   0.000000000000000E+000   0.000000000000000E+000
      784.105037242989100   0.000000000000000E+000   0.000000000000000E+000
      785.147037292481400   0.000000000000000E+000   0.000000000000000E+000
      786.189037341973700   0.000000000000000E+000   0.000000000000000E+000
      787.231037391466100   0.000000000000000E+000   0.000000000000000E+000
      788.273037440958400   0.000000000000000E+000   0.000000000000000E+000
      789.315037490450800   0.000000000000000E+000   0.000000000000000E+000
      790.357037539943100   0.000000000000000E+000   0.000000000000000E+000
      791.399037589435500   0.000000000000000E+000   0.000000000000000E+000
      792.441037638927800   0.000000000000000E+000   0.000000000000000E+000
      793.483037688420200   0.000000000000000E+000   0.000000000000000E+000
      794.525037737912500   0.000000000000000E+000   0.000000000000000E+000
      795.567037787404800   0.000000000000000E+000   0.000000000000000E+000
      796.609037836897200   0.000000000000000E+000   0.000000000000000E+000
      797.651037886389500   0.000000000000000E+000   0.000000000000000E+000
      798.693037935881900   0.000000000000000E+000   0.000000000000000E+000
      799.735037985374200   0.000000000000000E+000   0.000000000000000E+000
      800.777038034866600   0.000000000000000E+000   0.000000000000000E+000
      801.819038084358900   0.000000000000000E+000   0.000000000000000E+000
      802.861038133851300   0.000000000000000E+000   0.000000000000000E+000
      803.903038183343600   0.000000000000000E+000   0.000000000000000E+000
      804.945038232835900   0.000000000000000E+000   0.000000000000000E+000
      805.987038282328300   0.000000000000000E+000   0.000000000000000E+000
      807.029038331820600   0.000000000000000E+000   0.000000000000000E+000
      808.071038381313000   0.000000000000000E+000   0.000000000000000E+000
      809.113038430805300   0.000000000000000E+000   0.000000000000000E+000
      810.155038480297700   0.000000000000000E+000   0.000000000000000E+000
      811.197038529790000   0.000000000000000E+000   0.000000000000000E+000
      812.239038579282400   0.000000000000000E+000   0.000000000000000E+000
      813.281038628774700   0.000000000000000E+000   0.000000000000000E+000
      814.323038678267000   0.000000000000000E+000   0.000000000000000E+000
      815.365038727759400   0.000000000000000E+000   0.000000000000000E+000
      816.407038777251700   0.000000000000000E+000   0.000000000000000E+000
      817.449038826744100   0.000000000000000E+000   0.000000000000000E+000
      818.491038876236400   0.000000000000000E+000   0.000000000000000E+000
      819.533038925728800   0.000000000000000E+000   0.000000000000000E+000
      820.575038975221100   0.000000000000000E+000   0.000000000000000E+000
      821.617039024713500   0.000000000000000E+000   0.000000000000000E+000
      822.659039074205800   0.000000000000000E+000   0.000000000000000E+000
      823.701039123698100   0.000000000000000E+000   0.000000000000000E+000
      824.743039173190500   0.000000000000000E+000   0.000000000000000E+000
      825.785039222682800   0.000000000000000E+000   0.000000000000000E+000
      826.827039272175200   0.000000000000000E+000   0.000000000000000E+000
      827.869039321667500   0.000000000000000E+000   0.000000000000000E+000
      828.911039371159900   0.000000000000000E+000   0.000000000000000E+000
      829.953039420652200   0.000000000000000E+000   0.000000000000000E+000
      830.995039470144600   0.000000000000000E+000   0.000000000000000E+000
      832.037039519636900   0.000000000000000E+000   0.000000000000000E+000
      833.079039569129200   0.000000000000000E+000   0.000000000000000E+000
      834.121039618621600   0.000000000000000E+000   0.000000000000000E+000
      835.163039668113900   0.000000000000000E+000   0.000000000000000E+000
      836.205039717606300   0.000000000000000E+000   0.000000000000000E+000
      837.247039767098600   0.000000000000000E+000   0.000000000000000E+000
      838.289039816591000   0.000000000000000E+000   0.000000000000000E+000
      839.331039866083300   0.000000000000000E+000   0.000000000000000E+000
      840.373039915575700   0.000000000000000E+000   0.000000000000000E+000
      841.415039965068000   0.000000000000000E+000   0.000000000000000E+000
      842.457040014560300   0.000000000000000E+000   0.000000000000000E+000
      843.499040064052700   0.000000000000000E+000   0.000000000000000E+000
      844.541040113545000   0.000000000000000E+000   0.000000000000000E+000
      845.583040163037400   0.000000000000000E+000   0.000000000000000E+000
      846.625040212529700   0.000000000000000E+000   0.000000000000000E+000
      847.667040262022100   0.000000000000000E+000   0.000000000000000E+000
      848.709040311514400   0.000000000000000E+000   0.000000000000000E+000
      849.751040361006700   0.000000000000000E+000   0.000000000000000E+000
      850.793040410499100   0.000000000000000E+000   0.000000000000000E+000
      851.835040459991400   0.000000000000000E+000   0.000000000000000E+000
      852.877040509483800   0.000000000000000E+000   0.000000000000000E+000
      853.919040558976100   0.000000000000000E+000   0.000000000000000E+000
      854.961040608468500   0.000000000000000E+000   0.000000000000000E+000
      856.003040657960800   0.000000000000000E+000   0.000000000000000E+000
      857.045040707453200   0.000000000000000E+000   0.000000000000000E+000
      858.087040756945500   0.000000000000000E+000   0.000000000000000E+000
      859.129040806437800   0.000000000000000E+000   0.000000000000000E+000
      860.171040855930200   0.000000000000000E+000   0.000000000000000E+000
      861.213040905422500   0.000000000000000E+000   0.000000000000000E+000
      862.255040954914900   0.000000000000000E+000   0.000000000000000E+000
      863.297041004407200   0.000000000000000E+000   0.000000000000000E+000
      864.339041053899600   0.000000000000000E+000   0.000000000000000E+000
      865.381041103391900   0.000000000000000E+000   0.000000000000000E+000
      866.423041152884300   0.000000000000000E+000   0.000000000000000E+000
      867.465041202376600   0.000000000000000E+000   0.000000000000000E+000
      868.507041251868900   0.000000000000000E+000   0.000000000000000E+000
      869.549041301361300   0.000000000000000E+000   0.000000000000000E+000
      870.591041350853600   0.000000000000000E+000   0.000000000000000E+000
      871.633041400346000   0.000000000000000E+000   0.000000000000000E+000
      872.675041449838300   0.000000000000000E+000   0.000000000000000E+000
      873.717041499330700   0.000000000000000E+000   0.000000000000000E+000
      874.759041548823000   0.000000000000000E+000   0.000000000000000E+000
      875.801041598315400   0.000000000000000E+000   0.000000000000000E+000
      876.843041647807700   0.000000000000000E+000   0.000000000000000E+000
      877.885041697300000   0.000000000000000E+000   0.000000000000000E+000
      878.927041746792400   0.000000000000000E+000   0.000000000000000E+000
      879.969041796284700   0.000000000000000E+000   0.000000000000000E+000
      881.011041845777100   0.000000000000000E+000   0.000000000000000E+000
      882.053041895269400   0.000000000000000E+000   0.000000000000000E+000
      883.095041944761800   0.000000000000000E+000   0.000000000000000E+000
      884.137041994254100   0.000000000000000E+000   0.000000000000000E+000
      885.179042043746500   0.000000000000000E+000   0.000000000000000E+000
      886.221042093238800   0.000000000000000E+000   0.000000000000000E+000
      887.263042142731100   0.000000000000000E+000   0.000000000000000E+000
      888.305042192223500   0.000000000000000E+000   0.000000000000000E+000
      889.347042241715800   0.000000000000000E+000   0.000000000000000E+000
      890.389042291208200   0.000000000000000E+000   0.000000000000000E+000
      891.431042340700500   0.000000000000000E+000   0.000000000000000E+000
      892.473042390192900   0.000000000000000E+000   0.000000000000000E+000
      893.515042439685200   0.000000000000000E+000   0.000000000000000E+000
      894.557042489177600   0.000000000000000E+000   0.000000000000000E+000
      895.599042538669900   0.000000000000000E+000   0.000000000000000E+000
      896.641042588162200   0.000000000000000E+000   0.000000000000000E+000
      897.683042637654600   0.000000000000000E+000   0.000000000000000E+000
      898.725042687146900   0.000000000000000E+000   0.000000000000000E+000
      899.767042736639300   0.000000000000000E+000   0.000000000000000E+000
      900.809042786131600   0.000000000000000E+000   0.000000000000000E+000
      901.851042835624000   0.000000000000000E+000   0.000000000000000E+000
      902.893042885116300   0.000000000000000E+000   0.000000000000000E+000
      903.935042934608700   0.000000000000000E+000   0.000000000000000E+000
      904.977042984101000   0.000000000000000E+000   0.000000000000000E+000
      906.019043033593300   0.000000000000000E+000   0.000000000000000E+000
      907.061043083085700   0.000000000000000E+000   0.000000000000000E+000
      908.103043132578000   0.000000000000000E+000   0.000000000000000E+000
      909.145043182070400   0.000000000000000E+000   0.000000000000000E+000
      910.187043231562700   0.000000000000000E+000   0.000000000000000E+000
      911.229043281055100   0.000000000000000E+000   0.000000000000000E+000
      912.271043330547400   0.000000000000000E+000   0.000000000000000E+000
      913.313043380039700   0.000000000000000E+000   0.000000000000000E+000
      914.355043429532100   0.000000000000000E+000   0.000000000000000E+000
      915.397043479024400   0.000000000000000E+000   0.000000000000000E+000
      916.439043528516800   0.000000000000000E+000   0.000000000000000E+000
      917.481043578009100   0.000000000000000E+000   0.000000000000000E+000
      918.523043627501500   0.000000000000000E+000   0.000000000000000E+000
      919.565043676993800   0.000000000000000E+000   0.000000000000000E+000
      920.607043726486200   0.000000000000000E+000   0.000000000000000E+000
      921.649043775978500   0.000000000000000E+000   0.000000000000000E+000
      922.691043825470800   0.000000000000000E+000   0.000000000000000E+000
      923.733043874963200   0.000000000000000E+000   0.000000000000000E+000
      924.775043924455500   0.000000000000000E+000   0.000000000000000E+000
      925.817043973947900   0.000000000000000E+000   0.000000000000000E+000
      926.859044023440200   0.000000000000000E+000   0.000000000000000E+000
      927.901044072932600   0.000000000000000E+000   0.000000000000000E+000
      928.943044122424900   0.000000000000000E+000   0.000000000000000E+000
      929.985044171917300   0.000000000000000E+000   0.000000000000000E+000
      931.027044221409600   0.000000000000000E+000   0.000000000000000E+000
      932.069044270901900   0.000000000000000E+000   0.000000000000000E+000
      933.111044320394300   0.000000000000000E+000   0.000000000000000E+000
      934.153044369886600   0.000000000000000E+000   0.000000000000000E+000
      935.195044419379000   0.000000000000000E+000   0.000000000000000E+000
      936.237044468871300   0.000000000000000E+000   0.000000000000000E+000
      937.279044518363700   0.000000000000000E+000   0.000000000000000E+000
      938.321044567856000   0.000000000000000E+000   0.000000000000000E+000
      939.363044617348400   0.000000000000000E+000   0.000000000000000E+000
      940.405044666840700   0.000000000000000E+000   0.000000000000000E+000
      941.447044716333000   0.000000000000000E+000   0.000000000000000E+000
      942.489044765825400   0.000000000000000E+000   0.000000000000000E+000
      943.531044815317700   0.000000000000000E+000   0.000000000000000E+000
      944.573044864810100   0.000000000000000E+000   0.000000000000000E+000
      945.615044914302400   0.000000000000000E+000   0.000000000000000E+000
      946.657044963794800   0.000000000000000E+000   0.000000000000000E+000
      947.699045013287100   0.000000000000000E+000   0.000000000000000E+000
      948.741045062779500   0.000000000000000E+000   0.000000000000000E+000
      949.783045112271800   0.000000000000000E+000   0.000000000000000E+000
      950.825045161764100   0.000000000000000E+000   0.000000000000000E+000
      951.867045211256500   0.000000000000000E+000   0.000000000000000E+000
      952.909045260748800   0.000000000000000E+000   0.000000000000000E+000
      953.951045310241200   0.000000000000000E+000   0.000000000000000E+000
      954.993045359733500   0.000000000000000E+000   0.000000000000000E+000
      956.035045409225900   0.000000000000000E+000   0.000000000000000E+000
      957.077045458718200   0.000000000000000E+000   0.000000000000000E+000
      958.119045508210600   0.000000000000000E+000   0.000000000000000E+000
      959.161045557702900   0.000000000000000E+000   0.000000000000000E+000
      960.203045607195200   0.000000000000000E+000   0.000000000000000E+000
      961.245045656687600   0.000000000000000E+000   0.000000000000000E+000
      962.287045706179900   0.000000000000000E+000   0.000000000000000E+000
      963.329045755672300   0.000000000000000E+000   0.000000000000000E+000
      964.371045805164600   0.000000000000000E+000   0.000000000000000E+000
      965.413045854657000   0.000000000000000E+000   0.000000000000000E+000
      966.455045904149300   0.000000000000000E+000   0.000000000000000E+000
      967.497045953641700   0.000000000000000E+000   0.000000000000000E+000
      968.539046003134000   0.000000000000000E+000   0.000000000000000E+000
      969.581046052626300   0.000000000000000E+000   0.000000000000000E+000
      970.623046102118700   0.000000000000000E+000   0.000000000000000E+000
      971.665046151611000   0.000000000000000E+000   0.000000000000000E+000
      972.707046201103400   0.000000000000000E+000   0.000000000000000E+000
      973.749046250595700   0.000000000000000E+000   0.000000000000000E+000
      974.791046300088100   0.000000000000000E+000   0.000000000000000E+000
      975.833046349580400   0.000000000000000E+000   0.000000000000000E+000
      976.875046399072700   0.000000000000000E+000   0.000000000000000E+000
      977.917046448565100   0.000000000000000E+000   0.000000000000000E+000
      978.959046498057400   0.000000000000000E+000   0.000000000000000E+000
      980.001046547549800   0.000000000000000E+000   0.000000000000000E+000
      981.043046597042100   0.000000000000000E+000   0.000000000000000E+000
      982.085046646534500   0.000000000000000E+000   0.000000000000000E+000
      983.127046696026800   0.000000000000000E+000   0.000000000000000E+000
      984.169046745519200   0.000000000000000E+000   0.000000000000000E+000
      985.211046795011500   0.000000000000000E+000   0.000000000000000E+000
      986.253046844503800   0.000000000000000E+000   0.000000000000000E+000
      987.295046893996200   0.000000000000000E+000   0.000000000000000E+000
      988.337046943488500   0.000000000000000E+000   0.000000000000000E+000
      989.379046992980900   0.000000000000000E+000   0.000000000000000E+000
      990.421047042473200   0.000000000000000E+000   0.000000000000000E+000
      991.463047091965600   0.000000000000000E+000   0.000000000000000E+000
      992.505047141457900   0.000000000000000E+000   0.000000000000000E+000
      993.547047190950300   0.000000000000000E+000   0.000000000000000E+000
      994.589047240442600   0.000000000000000E+000   0.000000000000000E+000
      995.631047289934900   0.000000000000000E+000   0.000000000000000E+000
      996.673047339427300   0.000000000000000E+000   0.000000000000000E+000
      997.715047388919600   0.000000000000000E+000   0.000000000000000E+000
      998.757047438412000   0.000000000000000E+000   0.000000000000000E+000
      999.799047487904300   0.000000000000000E+000   0.000000000000000E+000
     1000.841047537397000   0.000000000000000E+000   0.000000000000000E+000
     1001.883047586889000   0.000000000000000E+000   0.000000000000000E+000
     1002.925047636381000   0.000000000000000E+000   0.000000000000000E+000
     1003.967047685874000   0.000000000000000E+000   0.000000000000000E+000
     1005.009047735366000   0.000000000000000E+000   0.000000000000000E+000
     1006.051047784858000   0.000000000000000E+000   0.000000000000000E+000
     1007.093047834351000   0.000000000000000E+000   0.000000000000000E+000
     1008.135047883843000   0.000000000000000E+000   0.000000000000000E+000
     1009.177047933335000   0.000000000000000E+000   0.000000000000000E+000
     1010.219047982828000   0.000000000000000E+000   0.000000000000000E+000
     1011.261048032320000   0.000000000000000E+000   0.000000000000000E+000
     1012.303048081812000   0.000000000000000E+000   0.000000000000000E+000
     1013.345048131305000   0.000000000000000E+000   0.000000000000000E+000
     1014.387048180797000   0.000000000000000E+000   0.000000000000000E+000
     1015.429048230290000   0.000000000000000E+000   0.000000000000000E+000
     1016.471048279782000   0.000000000000000E+000   0.000000000000000E+000
     1017.513048329274000   0.000000000000000E+000   0.000000000000000E+000
     1018.555048378767000   0.000000000000000E+000   0.000000000000000E+000
     1019.597048428259000   0.000000000000000E+000   0.000000000000000E+000
     1020.639048477751000   0.000000000000000E+000   0.000000000000000E+000
     1021.681048527244000   0.000000000000000E+000   0.000000000000000E+000
     1022.723048576736000   0.000000000000000E+000   0.000000000000000E+000
     1023.765048626228000   0.000000000000000E+000   0.000000000000000E+000
     1024.807048675721000   0.000000000000000E+000   0.000000000000000E+000
     1025.849048725213000   0.000000000000000E+000   0.000000000000000E+000
     1026.891048774705000   0.000000000000000E+000   0.000000000000000E+000
     1027.933048824198000   0.000000000000000E+000   0.000000000000000E+000
     1028.975048873690000   0.000000000000000E+000   0.000000000000000E+000
     1030.017048923182000   0.000000000000000E+000   0.000000000000000E+000
     1031.059048972675000   0.000000000000000E+000   0.000000000000000E+000
     1032.101049022167000   0.000000000000000E+000   0.000000000000000E+000
     1033.143049071659000   0.000000000000000E+000   0.000000000000000E+000
     1034.185049121152000   0.000000000000000E+000   0.000000000000000E+000
     1035.227049170644000   0.000000000000000E+000   0.000000000000000E+000
     1036.269049220136000   0.000000000000000E+000   0.000000000000000E+000
     1037.311049269629000   0.000000000000000E+000   0.000000000000000E+000
     1038.353049319121000   0.000000000000000E+000   0.000000000000000E+000
     1039.395049368613000   0.000000000000000E+000   0.000000000000000E+000
     1040.437049418106000   0.000000000000000E+000   0.000000000000000E+000
     1041.479049467598000   0.000000000000000E+000   0.000000000000000E+000
